date,equity
2024-12-30,99.92942857142857
2024-12-31,99.93092857142857
2025-01-01,99.98146428571428
2025-01-02,99.88874999999999
2025-01-03,99.98989285714285
2025-01-05,99.98989285714285
2025-01-06,100.08457142857142
2025-01-07,100.08457142857142
2025-01-08,100.17614285714285
2025-01-09,100.18692857142855
2025-01-10,100.29174999999998
2025-01-12,100.3078214285714
2025-01-13,100.1998214285714
2025-01-14,100.1998214285714
2025-01-15,100.24124999999997
2025-01-16,100.24124999999997
2025-01-17,100.32203571428568
2025-01-19,100.27103571428567
2025-01-20,100.27103571428567
2025-01-21,100.27342857142852
2025-01-22,100.19128571428567
2025-01-23,100.23085714285709
2025-01-24,100.1518571428571
2025-01-26,100.0648571428571
2025-01-27,100.29982142857138
2025-01-28,100.1981071428571
2025-01-29,100.19917857142852
2025-01-30,100.12617857142851
2025-01-31,100.13324999999995
2025-02-02,100.17903571428566
2025-02-03,100.17903571428566
2025-02-04,100.33599999999994
2025-02-05,100.41507142857137
2025-02-06,100.45474999999993
2025-02-07,100.45474999999993
2025-02-09,100.45474999999993
2025-02-10,100.53182142857136
2025-02-11,100.41482142857136
2025-02-12,100.42814285714279
2025-02-13,100.4954285714285
2025-02-14,100.58082142857137
2025-02-16,100.50453571428565
2025-02-17,100.54774999999994
2025-02-18,100.54774999999994
2025-02-19,100.65982142857136
2025-02-20,100.65982142857136
2025-02-21,100.51539285714279
2025-02-23,100.42282142857135
2025-02-24,100.5421785714285
2025-02-25,100.92107142857135
2025-02-26,100.83435714285707
2025-02-27,100.69364285714279
2025-02-28,100.59649999999993
2025-03-02,100.64164285714278
2025-03-03,100.7656785714285
2025-03-04,100.81428571428563
2025-03-05,100.72257142857134
2025-03-06,100.83539285714278
2025-03-07,100.83539285714278
2025-03-09,100.87353571428564
2025-03-10,100.7446785714285
2025-03-11,100.83782142857135
2025-03-12,100.83782142857135
2025-03-13,100.83782142857135
2025-03-14,100.74524999999991
2025-03-16,100.66124999999991
2025-03-17,100.56596428571419
2025-03-18,100.48510714285705
2025-03-19,100.49217857142847
2025-03-20,100.80507142857132
2025-03-21,100.80507142857132
2025-03-23,100.87585714285703
2025-03-24,100.78771428571417
2025-03-25,100.9490357142856
2025-03-26,100.86917857142845
2025-03-27,100.86917857142845
2025-03-28,100.7690357142856
2025-03-30,100.7690357142856
2025-03-31,100.6463214285713
2025-04-01,100.52174999999987
2025-04-02,100.52174999999987
2025-04-03,100.88389285714271
2025-04-04,100.72689285714272
2025-04-06,100.72689285714272
2025-04-07,101.00046428571414
2025-04-08,101.00046428571414
2025-04-09,100.81689285714272
2025-04-10,100.86346428571414
2025-04-11,100.873857142857
2025-04-13,100.98689285714272
2025-04-14,100.88603571428558
2025-04-15,100.79332142857129
2025-04-16,100.89728571428557
2025-04-17,100.927857142857
2025-04-20,100.98796428571413
2025-04-21,100.87396428571412
2025-04-22,100.99321428571412
2025-04-23,101.04335714285696
2025-04-24,101.04335714285696
2025-04-25,101.04335714285696
2025-04-27,100.97249999999983
2025-04-28,100.97249999999983
2025-04-29,101.0384285714284
2025-04-30,101.21932142857125
2025-05-01,101.21932142857125
2025-05-02,101.25764285714268
2025-05-04,101.19407142857125
2025-05-05,101.19407142857125
2025-05-06,101.19407142857125
2025-05-07,101.37632142857125
2025-05-08,101.24174999999983
2025-05-09,101.14560714285696
2025-05-11,101.01403571428553
2025-05-12,101.01403571428553
2025-05-13,100.92260714285695
2025-05-14,100.80760714285694
2025-05-15,100.80760714285694
2025-05-16,100.82778571428551
2025-05-18,100.82778571428551
2025-05-19,100.82778571428551
2025-05-20,100.82778571428551
2025-05-21,100.74578571428552
2025-05-22,100.76528571428551
2025-05-23,100.69728571428551
2025-05-25,100.60271428571409
2025-05-26,100.60271428571409
2025-05-27,100.4659999999998
2025-05-28,100.48160714285694
2025-05-29,100.38932142857124
2025-05-30,100.38932142857124
2025-06-01,100.38932142857124
2025-06-02,100.38932142857124
2025-06-03,100.38932142857124
2025-06-04,100.29860714285695
2025-06-05,101.15089285714267
2025-06-06,101.15892857142839
2025-06-08,101.09335714285696
2025-06-09,101.11432142857126
2025-06-10,100.99789285714269
2025-06-11,100.90674999999983
2025-06-12,100.62303571428555
2025-06-13,100.62303571428555
2025-06-15,100.62303571428555
2025-06-16,100.48003571428555
2025-06-17,100.48003571428555
2025-06-18,100.48003571428555
2025-06-19,100.42303571428555
2025-06-20,100.49053571428556
2025-06-22,100.54117857142842
2025-06-23,100.57146428571413
2025-06-24,100.4491785714284
2025-06-25,100.36760714285697
2025-06-26,100.64099999999982
2025-06-27,100.75074999999981
2025-06-29,100.7754642857141
2025-06-30,100.68446428571409
2025-07-01,100.9699642857141
2025-07-02,100.9699642857141
2025-07-03,100.98032142857124
2025-07-04,100.98032142857124
2025-07-06,101.18928571428553
2025-07-07,101.06985714285696
2025-07-08,100.99057142857126
2025-07-09,100.99596428571411
2025-07-10,101.03771428571412
2025-07-11,101.03771428571412
2025-07-13,100.93685714285698
2025-07-14,100.9449285714284
2025-07-15,100.8546428571427
2025-07-16,100.85810714285697
2025-07-17,100.92664285714268
2025-07-18,100.94132142857126
2025-07-20,100.94132142857126
2025-07-21,100.94885714285698
2025-07-22,100.84928571428556
2025-07-23,100.76328571428556
2025-07-24,100.76328571428556
2025-07-25,100.67685714285699
2025-07-27,100.60528571428557
2025-07-28,100.627357142857
2025-07-29,100.50964285714271
2025-07-30,100.65367857142843
2025-07-31,101.187857142857
2025-08-01,101.187857142857
2025-08-03,101.19428571428557
2025-08-04,101.23442857142842
2025-08-05,101.24932142857128
2025-08-06,101.15674999999985
2025-08-07,101.04989285714271
2025-08-08,100.8998928571427
2025-08-10,101.03899999999985
2025-08-11,100.8541428571427
2025-08-12,100.8661428571427
2025-08-13,101.0038928571427
2025-08-14,101.0038928571427
2025-08-15,101.0038928571427
2025-08-17,100.93017857142841
2025-08-18,100.82760714285698
2025-08-19,100.86707142857125
2025-08-20,100.99189285714269
2025-08-21,100.99189285714269
2025-08-22,101.0009285714284
2025-08-24,101.05285714285696
2025-08-25,101.15682142857125
2025-08-26,101.15682142857125
2025-08-27,101.31553571428553
2025-08-28,101.20853571428553
2025-08-29,101.2587142857141
2025-08-31,101.2587142857141
2025-09-01,101.29967857142839
2025-09-02,101.42978571428553
2025-09-03,101.42978571428553
2025-09-04,101.4637142857141
2025-09-05,101.4637142857141
2025-09-07,101.4637142857141
2025-09-08,101.48642857142839
2025-09-09,101.38014285714267
2025-09-10,101.39803571428553
2025-09-11,101.28689285714267
2025-09-12,101.30724999999981
2025-09-14,101.37860714285695
2025-09-15,101.27932142857124
2025-09-16,101.27932142857124
2025-09-17,101.5612499999998
2025-09-18,101.71635714285694
2025-09-19,101.5947857142855
2025-09-21,101.5947857142855
2025-09-22,101.43521428571407
2025-09-23,101.6780357142855
2025-09-24,101.55946428571407
2025-09-25,101.75835714285694
2025-09-26,101.77435714285693
2025-09-28,101.60164285714265
2025-09-29,101.36021428571408
2025-09-30,102.03332142857121
2025-10-01,102.03332142857121
2025-10-02,101.89917857142837
2025-10-03,101.80874999999979
2025-10-05,101.80874999999979
2025-10-06,101.63232142857123
2025-10-07,101.3107499999998
2025-10-08,101.3744999999998
2025-10-09,101.20078571428552
2025-10-10,101.20078571428552
2025-10-12,99.74292857142837
2025-10-13,99.30264285714264
2025-10-14,98.50835714285694
2025-10-15,98.71253571428551
2025-10-16,98.55296428571408
2025-10-17,98.55296428571408
2025-10-19,98.0312499999998
2025-10-20,98.07532142857121
2025-10-21,99.31657142857122
2025-10-22,99.54042857142836
2025-10-23,99.32371428571409
2025-10-24,99.43828571428551
2025-10-26,99.43828571428551
2025-10-27,99.21242857142838
2025-10-28,98.85185714285694
2025-10-29,98.67285714285694
2025-10-30,98.81707142857123
2025-10-31,98.62878571428551
2025-11-02,98.79321428571409
2025-11-03,98.79321428571409
2025-11-04,98.59835714285694
2025-11-05,98.43549999999979
2025-11-06,98.30449999999979
2025-11-07,98.16392857142836
2025-11-09,97.99935714285692
2025-11-10,97.79764285714265
2025-11-11,97.79764285714265
2025-11-12,97.79764285714265
2025-11-13,97.58921428571408
2025-11-14,97.29707142857123
2025-11-16,97.09092857142838
2025-11-17,97.09092857142838
2025-11-18,97.21853571428552
2025-11-19,97.21853571428552
2025-11-20,96.86482142857123
2025-11-21,96.86482142857123
2025-11-23,96.94296428571408
2025-11-24,97.06799999999978
2025-11-25,96.80085714285693
2025-11-26,96.87239285714264
2025-11-27,96.66496428571406
2025-11-28,96.66496428571406
2025-11-30,96.66496428571406
2025-12-01,96.96596428571407
2025-12-02,97.06574999999978
2025-12-03,96.84946428571408
2025-12-04,96.49017857142837
2025-12-05,96.53621428571408
2025-12-07,96.2967857142855
2025-12-08,96.2967857142855
2025-12-09,96.54235714285693
2025-12-10,96.54235714285693
2025-12-11,96.56349999999978
2025-12-12,96.65128571428549
2025-12-14,96.66907142857121
2025-12-15,96.44892857142835
2025-12-16,96.19664285714265
2025-12-17,96.19664285714265
2025-12-18,96.19664285714265
2025-12-19,96.19664285714265
2025-12-21,96.19664285714265
2025-12-22,95.92735714285693
2025-12-23,95.9890357142855
2025-12-24,95.64546428571408
2025-12-25,95.64546428571408
2025-12-26,95.41846428571408
