date,equity
2024-12-30,100.0
2024-12-31,100.0295
2025-01-01,100.08003571428571
2025-01-02,100.00517857142857
2025-01-03,100.00517857142857
2025-01-05,100.00517857142857
2025-01-06,100.05996428571429
2025-01-07,100.05996428571429
2025-01-08,99.97825
2025-01-09,99.97825
2025-01-10,99.89596428571429
2025-01-12,99.91203571428571
2025-01-13,99.91203571428571
2025-01-14,99.7830357142857
2025-01-15,99.79846428571427
2025-01-16,99.79889285714285
2025-01-17,99.73332142857141
2025-01-19,99.68232142857141
2025-01-20,99.6273214285714
2025-01-21,99.63371428571426
2025-01-22,99.68317857142854
2025-01-23,99.81074999999997
2025-01-24,99.85896428571425
2025-01-26,99.77196428571425
2025-01-27,99.77196428571425
2025-01-28,99.69082142857138
2025-01-29,99.70489285714281
2025-01-30,99.64946428571423
2025-01-31,99.66732142857137
2025-02-02,99.71310714285708
2025-02-03,99.74846428571422
2025-02-04,99.79346428571422
2025-02-05,99.95353571428564
2025-02-06,99.8166785714285
2025-02-07,99.87264285714278
2025-02-09,99.87264285714278
2025-02-10,99.94471428571421
2025-02-11,99.94471428571421
2025-02-12,99.94471428571421
2025-02-13,99.83271428571422
2025-02-14,99.83271428571422
2025-02-16,99.7564285714285
2025-02-17,99.84764285714279
2025-02-18,99.84764285714279
2025-02-19,99.76507142857136
2025-02-20,99.78949999999993
2025-02-21,99.65864285714278
2025-02-23,99.56607142857135
2025-02-24,99.56607142857135
2025-02-25,99.8899642857142
2025-02-26,99.93757142857135
2025-02-27,99.79857142857135
2025-02-28,99.80810714285707
2025-03-02,99.85324999999992
2025-03-03,99.76124999999992
2025-03-04,99.76124999999992
2025-03-05,99.65710714285706
2025-03-06,99.82092857142848
2025-03-07,99.75435714285706
2025-03-09,99.79249999999992
2025-03-10,99.79249999999992
2025-03-11,99.93964285714277
2025-03-12,100.06178571428563
2025-03-13,100.06178571428563
2025-03-14,100.06178571428563
2025-03-16,99.97778571428563
2025-03-17,99.88435714285706
2025-03-18,99.8877142857142
2025-03-19,99.95899999999992
2025-03-20,100.27789285714277
2025-03-21,100.17703571428564
2025-03-23,100.24782142857134
2025-03-24,100.16010714285706
2025-03-25,100.19335714285705
2025-03-26,100.11492857142848
2025-03-27,100.02064285714276
2025-03-28,99.91978571428561
2025-03-30,99.91978571428561
2025-03-31,99.81335714285703
2025-04-01,99.85074999999989
2025-04-02,99.76346428571418
2025-04-03,100.03260714285703
2025-04-04,100.04096428571418
2025-04-06,100.04096428571418
2025-04-07,99.79282142857133
2025-04-08,99.65067857142847
2025-04-09,99.45882142857133
2025-04-10,99.59639285714275
2025-04-11,99.59639285714275
2025-04-13,99.70942857142846
2025-04-14,99.70942857142846
2025-04-15,99.61942857142846
2025-04-16,99.83439285714275
2025-04-17,99.84599999999989
2025-04-20,99.90610714285702
2025-04-21,99.92267857142846
2025-04-22,99.93992857142845
2025-04-23,100.0140714285713
2025-04-24,100.0140714285713
2025-04-25,100.0140714285713
2025-04-27,99.94321428571416
2025-04-28,99.94321428571416
2025-04-29,99.85649999999987
2025-04-30,99.77364285714273
2025-05-01,99.6760714285713
2025-05-02,99.6760714285713
2025-05-04,99.61249999999987
2025-05-05,99.63024999999988
2025-05-06,99.53739285714273
2025-05-07,99.53739285714273
2025-05-08,99.36653571428559
2025-05-09,99.46174999999988
2025-05-11,99.33017857142845
2025-05-12,99.64389285714273
2025-05-13,99.64846428571416
2025-05-14,99.64846428571416
2025-05-15,99.52203571428558
2025-05-16,99.57621428571414
2025-05-18,99.57621428571414
2025-05-19,99.49878571428556
2025-05-20,99.42192857142842
2025-05-21,99.42192857142842
2025-05-22,99.50242857142842
2025-05-23,99.42199999999985
2025-05-25,99.32742857142843
2025-05-26,99.24342857142842
2025-05-27,99.24342857142842
2025-05-28,99.26074999999986
2025-05-29,99.28853571428559
2025-05-30,99.20739285714274
2025-06-01,99.20739285714274
2025-06-02,99.20739285714274
2025-06-03,99.09596428571416
2025-06-04,99.10678571428559
2025-06-05,99.99307142857131
2025-06-06,99.86549999999988
2025-06-08,99.79992857142845
2025-06-09,99.68721428571416
2025-06-10,99.57621428571417
2025-06-11,99.80999999999989
2025-06-12,100.1893214285713
2025-06-13,99.99946428571417
2025-06-15,99.99946428571417
2025-06-16,99.83460714285702
2025-06-17,99.83460714285702
2025-06-18,99.72174999999987
2025-06-19,99.72174999999987
2025-06-20,99.88024999999988
2025-06-22,99.93089285714274
2025-06-23,99.95117857142844
2025-06-24,99.82146428571416
2025-06-25,99.82146428571416
2025-06-26,99.82146428571416
2025-06-27,100.13221428571416
2025-06-29,100.15692857142844
2025-06-30,100.08149999999986
2025-07-01,99.92978571428557
2025-07-02,99.7976428571427
2025-07-03,99.88099999999984
2025-07-04,99.76085714285699
2025-07-06,99.96982142857128
2025-07-07,99.96982142857128
2025-07-08,99.89167857142843
2025-07-09,99.89167857142843
2025-07-10,99.79739285714271
2025-07-11,99.79739285714271
2025-07-13,99.69653571428557
2025-07-14,99.69653571428557
2025-07-15,99.61267857142843
2025-07-16,99.65414285714272
2025-07-17,99.65414285714272
2025-07-18,99.65974999999986
2025-07-20,99.65974999999986
2025-07-21,99.66614285714272
2025-07-22,99.66614285714272
2025-07-23,99.58057142857129
2025-07-24,99.46399999999986
2025-07-25,99.38071428571413
2025-07-27,99.30914285714272
2025-07-28,99.30914285714272
2025-07-29,99.18457142857129
2025-07-30,99.321607142857
2025-07-31,99.88678571428557
2025-08-01,99.92192857142842
2025-08-03,99.928357142857
2025-08-04,100.03349999999986
2025-08-05,99.93721428571415
2025-08-06,99.850357142857
2025-08-07,99.89203571428558
2025-08-08,99.7153214285713
2025-08-10,99.85442857142844
2025-08-11,100.05821428571416
2025-08-12,100.18121428571416
2025-08-13,100.32196428571416
2025-08-14,100.32196428571416
2025-08-15,100.35107142857132
2025-08-17,100.27735714285703
2025-08-18,100.19349999999989
2025-08-19,100.19349999999989
2025-08-20,100.19349999999989
2025-08-21,100.4430714285713
2025-08-22,100.4430714285713
2025-08-24,100.49499999999986
2025-08-25,100.43385714285701
2025-08-26,100.54714285714272
2025-08-27,100.68885714285699
2025-08-28,100.68885714285699
2025-08-29,100.62457142857127
2025-08-31,100.62457142857127
2025-09-01,100.46828571428556
2025-09-02,100.7893928571427
2025-09-03,100.82503571428556
2025-09-04,100.82503571428556
2025-09-05,100.82728571428557
2025-09-07,100.82728571428557
2025-09-08,100.88399999999984
2025-09-09,100.97882142857128
2025-09-10,101.02671428571415
2025-09-11,101.02671428571415
2025-09-12,101.05907142857129
2025-09-14,101.13042857142842
2025-09-15,101.13042857142842
2025-09-16,101.19014285714272
2025-09-17,101.42107142857128
2025-09-18,101.53732142857127
2025-09-19,101.53732142857127
2025-09-21,101.53732142857127
2025-09-22,101.39174999999985
2025-09-23,101.25032142857128
2025-09-24,101.13917857142843
2025-09-25,101.77407142857129
2025-09-26,101.8050714285713
2025-09-28,101.63235714285702
2025-09-29,101.37164285714273
2025-09-30,102.05774999999987
2025-10-01,102.05774999999987
2025-10-02,102.05774999999987
2025-10-03,102.05774999999987
2025-10-05,102.05774999999987
2025-10-06,101.90360714285701
2025-10-07,101.90360714285701
2025-10-08,101.90360714285701
2025-10-09,101.90360714285701
2025-10-10,101.94346428571416
2025-10-12,100.48560714285702
2025-10-13,100.48560714285702
2025-10-14,100.52971428571416
2025-10-15,100.78289285714274
2025-10-16,101.03521428571418
2025-10-17,101.18517857142847
2025-10-19,100.66346428571418
2025-10-20,100.77053571428561
2025-10-21,101.27942857142847
2025-10-22,101.6712857142856
2025-10-23,101.50971428571418
2025-10-24,101.88128571428561
2025-10-26,101.88128571428561
2025-10-27,101.9505357142856
2025-10-28,101.63267857142847
2025-10-29,101.67485714285704
2025-10-30,101.67485714285704
2025-10-31,101.67485714285704
2025-11-02,101.83928571428561
2025-11-03,101.83928571428561
2025-11-04,101.63485714285704
2025-11-05,101.64664285714277
2025-11-06,101.50607142857135
2025-11-07,101.50607142857135
2025-11-09,101.34149999999991
2025-11-10,101.14435714285705
2025-11-11,101.14435714285705
2025-11-12,101.14435714285705
2025-11-13,100.92278571428562
2025-11-14,100.92278571428562
2025-11-16,100.71664285714277
2025-11-17,100.54092857142848
2025-11-18,100.96353571428563
2025-11-19,100.78982142857134
2025-11-20,100.51839285714277
2025-11-21,100.51839285714277
2025-11-23,100.59653571428562
2025-11-24,100.80457142857134
2025-11-25,100.80457142857134
2025-11-26,100.61671428571418
2025-11-27,100.37828571428561
2025-11-28,100.44103571428562
2025-11-30,100.44103571428562
2025-12-01,100.78503571428561
2025-12-02,100.61917857142848
2025-12-03,100.3984642857142
2025-12-04,100.3984642857142
2025-12-05,100.3984642857142
2025-12-07,100.15903571428564
2025-12-08,100.15903571428564
2025-12-09,100.57460714285708
2025-12-10,100.95282142857135
2025-12-11,100.95282142857135
2025-12-12,100.71382142857135
2025-12-14,100.73160714285706
2025-12-15,100.9487142857142
2025-12-16,100.9487142857142
2025-12-17,101.1529999999999
2025-12-18,101.16110714285705
2025-12-19,101.16110714285705
2025-12-21,101.16110714285705
2025-12-22,101.19414285714277
2025-12-23,101.29282142857134
2025-12-24,101.31560714285705
2025-12-25,101.31560714285705
2025-12-26,101.31560714285705
